Distance [m]	Wake y dip [V/(C.m)]
5.00000000e-07 5.07621047e+12
1.00000000e-06 7.87325226e+12
1.50000000e-06 1.10141024e+13
2.00000000e-06 1.42738204e+13
2.50000000e-06 1.75300852e+13
3.00000000e-06 2.07281892e+13
3.50000000e-06 2.38436622e+13
4.00000000e-06 2.68636067e+13
4.50000000e-06 2.97797373e+13
5.00000000e-06 3.25860305e+13
5.50000000e-06 3.52778886e+13
6.00000000e-06 3.78517697e+13
6.50000000e-06 4.03049726e+13
7.00000000e-06 4.26355003e+13
7.50000000e-06 4.48419534e+13
8.00000000e-06 4.69234514e+13
8.50000000e-06 4.88795819e+13
9.00000000e-06 5.07103522e+13
9.50000000e-06 5.24161530e+13
1.00000000e-05 5.39977315e+13
1.05000000e-05 5.54561578e+13
1.10000000e-05 5.67927986e+13
1.15000000e-05 5.80092964e+13
1.20000000e-05 5.91075460e+13
1.25000000e-05 6.00896720e+13
1.30000000e-05 6.09580008e+13
1.35000000e-05 6.17150416e+13
1.40000000e-05 6.23634744e+13
1.45000000e-05 6.29061281e+13
1.50000000e-05 6.33459636e+13
1.55000000e-05 6.36860602e+13
1.60000000e-05 6.39296023e+13
1.65000000e-05 6.40798758e+13
1.70000000e-05 6.41402519e+13
1.75000000e-05 6.41141706e+13
1.80000000e-05 6.40051315e+13
1.85000000e-05 6.38166818e+13
1.90000000e-05 6.35524047e+13
1.95000000e-05 6.32159048e+13
2.00000000e-05 6.28107887e+13
2.05000000e-05 6.23406607e+13
2.10000000e-05 6.18091172e+13
2.15000000e-05 6.12197318e+13
2.20000000e-05 6.05760510e+13
2.25000000e-05 5.98815879e+13
2.30000000e-05 5.91398184e+13
2.35000000e-05 5.83541793e+13
2.40000000e-05 5.75280607e+13
2.45000000e-05 5.66648000e+13
2.50000000e-05 5.57676779e+13
2.55000000e-05 5.48399090e+13
2.60000000e-05 5.38846359e+13
2.65000000e-05 5.29049252e+13
2.70000000e-05 5.19037585e+13
2.75000000e-05 5.08840289e+13
2.80000000e-05 4.98485388e+13
2.85000000e-05 4.87999982e+13
2.90000000e-05 4.77410275e+13
2.95000000e-05 4.66741517e+13
3.00000000e-05 4.56018027e+13
3.05000000e-05 4.45263239e+13
3.10000000e-05 4.34499675e+13
3.15000000e-05 4.23748931e+13
3.20000000e-05 4.13031652e+13
3.25000000e-05 4.02367493e+13
3.30000000e-05 3.91775128e+13
3.35000000e-05 3.81272221e+13
3.40000000e-05 3.70875395e+13
3.45000000e-05 3.60600252e+13
3.50000000e-05 3.50461390e+13
3.55000000e-05 3.40472448e+13
3.60000000e-05 3.30646113e+13
3.65000000e-05 3.20994170e+13
3.70000000e-05 3.11527559e+13
3.75000000e-05 3.02256389e+13
3.80000000e-05 2.93189935e+13
3.85000000e-05 2.84336659e+13
3.90000000e-05 2.75704185e+13
3.95000000e-05 2.67299323e+13
4.00000000e-05 2.59128076e+13
4.05000000e-05 2.51195610e+13
4.10000000e-05 2.43506280e+13
4.15000000e-05 2.36063701e+13
4.20000000e-05 2.28870767e+13
4.25000000e-05 2.21929681e+13
4.30000000e-05 2.15242015e+13
4.35000000e-05 2.08808766e+13
4.40000000e-05 2.02630397e+13
4.45000000e-05 1.96706843e+13
4.50000000e-05 1.91037542e+13
4.55000000e-05 1.85621443e+13
4.60000000e-05 1.80457016e+13
4.65000000e-05 1.75542256e+13
4.70000000e-05 1.70874670e+13
4.75000000e-05 1.66451285e+13
4.80000000e-05 1.62268710e+13
4.85000000e-05 1.58323173e+13
4.90000000e-05 1.54610523e+13
4.95000000e-05 1.51126276e+13
5.00000000e-05 1.47865696e+13
5.05000000e-05 1.44823851e+13
5.10000000e-05 1.41995622e+13
5.15000000e-05 1.39375707e+13
5.20000000e-05 1.36958653e+13
5.25000000e-05 1.34738846e+13
5.30000000e-05 1.32710498e+13
5.35000000e-05 1.30867660e+13
5.40000000e-05 1.29204211e+13
5.45000000e-05 1.27713860e+13
5.50000000e-05 1.26390193e+13
5.55000000e-05 1.25226724e+13
5.60000000e-05 1.24216931e+13
5.65000000e-05 1.23354310e+13
5.70000000e-05 1.22632370e+13
5.75000000e-05 1.22044656e+13
5.80000000e-05 1.21584804e+13
5.85000000e-05 1.21246536e+13
5.90000000e-05 1.21023607e+13
5.95000000e-05 1.20909798e+13
6.00000000e-05 1.20898929e+13
6.05000000e-05 1.20984880e+13
6.10000000e-05 1.21161569e+13
6.15000000e-05 1.21422933e+13
6.20000000e-05 1.21762973e+13
6.25000000e-05 1.22175818e+13
6.30000000e-05 1.22655742e+13
6.35000000e-05 1.23197174e+13
6.40000000e-05 1.23794702e+13
6.45000000e-05 1.24443106e+13
6.50000000e-05 1.25137389e+13
6.55000000e-05 1.25872729e+13
6.60000000e-05 1.26644432e+13
6.65000000e-05 1.27447932e+13
6.70000000e-05 1.28278810e+13
6.75000000e-05 1.29132772e+13
6.80000000e-05 1.30005619e+13
6.85000000e-05 1.30893262e+13
6.90000000e-05 1.31791768e+13
6.95000000e-05 1.32697385e+13
7.00000000e-05 1.33606544e+13
7.05000000e-05 1.34515879e+13
7.10000000e-05 1.35422242e+13
7.15000000e-05 1.36322700e+13
7.20000000e-05 1.37214513e+13
7.25000000e-05 1.38095124e+13
7.30000000e-05 1.38962132e+13
7.35000000e-05 1.39813240e+13
7.40000000e-05 1.40646245e+13
7.45000000e-05 1.41459075e+13
7.50000000e-05 1.42249800e+13
7.55000000e-05 1.43016601e+13
7.60000000e-05 1.43757763e+13
7.65000000e-05 1.44471744e+13
7.70000000e-05 1.45157217e+13
7.75000000e-05 1.45813034e+13
7.80000000e-05 1.46438193e+13
7.85000000e-05 1.47031844e+13
7.90000000e-05 1.47593289e+13
7.95000000e-05 1.48121958e+13
8.00000000e-05 1.48617363e+13
8.05000000e-05 1.49079058e+13
8.10000000e-05 1.49506644e+13
8.15000000e-05 1.49899802e+13
8.20000000e-05 1.50258301e+13
8.25000000e-05 1.50581981e+13
8.30000000e-05 1.50870758e+13
8.35000000e-05 1.51124677e+13
8.40000000e-05 1.51343923e+13
8.45000000e-05 1.51528791e+13
8.50000000e-05 1.51679680e+13
8.55000000e-05 1.51797095e+13
8.60000000e-05 1.51881608e+13
8.65000000e-05 1.51933828e+13
8.70000000e-05 1.51954400e+13
8.75000000e-05 1.51943972e+13
8.80000000e-05 1.51903168e+13
8.85000000e-05 1.51832612e+13
8.90000000e-05 1.51732963e+13
8.95000000e-05 1.51604933e+13
9.00000000e-05 1.51449304e+13
9.05000000e-05 1.51266917e+13
9.10000000e-05 1.51058676e+13
9.15000000e-05 1.50825563e+13
9.20000000e-05 1.50568614e+13
9.25000000e-05 1.50288866e+13
9.30000000e-05 1.49987331e+13
9.35000000e-05 1.49664995e+13
9.40000000e-05 1.49322840e+13
9.45000000e-05 1.48961815e+13
9.50000000e-05 1.48582823e+13
9.55000000e-05 1.48186753e+13
9.60000000e-05 1.47774503e+13
9.65000000e-05 1.47347000e+13
9.70000000e-05 1.46905191e+13
9.75000000e-05 1.46450049e+13
9.80000000e-05 1.45982585e+13
9.85000000e-05 1.45503837e+13
9.90000000e-05 1.45014834e+13
9.95000000e-05 1.44516569e+13
1.00000000e-04 1.44009992e+13
1.00500000e-04 1.43495993e+13
1.01000000e-04 1.42975396e+13
1.01500000e-04 1.42448959e+13
1.02000000e-04 1.41917387e+13
1.02500000e-04 1.41381358e+13
1.03000000e-04 1.40841547e+13
1.03500000e-04 1.40298649e+13
1.04000000e-04 1.39753380e+13
1.04500000e-04 1.39206472e+13
1.05000000e-04 1.38658668e+13
1.05500000e-04 1.38110712e+13
1.06000000e-04 1.37563323e+13
1.06500000e-04 1.37017172e+13
1.07000000e-04 1.36472863e+13
1.07500000e-04 1.35930922e+13
1.08000000e-04 1.35391804e+13
1.08500000e-04 1.34855906e+13
1.09000000e-04 1.34323587e+13
1.09500000e-04 1.33795195e+13
1.10000000e-04 1.33271074e+13
1.10500000e-04 1.32751591e+13
1.11000000e-04 1.32237123e+13
1.11500000e-04 1.31728050e+13
1.12000000e-04 1.31224751e+13
1.12500000e-04 1.30727597e+13
1.13000000e-04 1.30236930e+13
1.13500000e-04 1.29753037e+13
1.14000000e-04 1.29276152e+13
1.14500000e-04 1.28806453e+13
1.15000000e-04 1.28344057e+13
1.15500000e-04 1.27889025e+13
1.16000000e-04 1.27441394e+13
1.16500000e-04 1.27001218e+13
1.17000000e-04 1.26568571e+13
1.17500000e-04 1.26143539e+13
1.18000000e-04 1.25726214e+13
1.18500000e-04 1.25316688e+13
1.19000000e-04 1.24915051e+13
1.19500000e-04 1.24521385e+13
1.20000000e-04 1.24135743e+13
1.20500000e-04 1.23758133e+13
1.21000000e-04 1.23388503e+13
1.21500000e-04 1.23026753e+13
1.22000000e-04 1.22672740e+13
1.22500000e-04 1.22326293e+13
1.23000000e-04 1.21987239e+13
1.23500000e-04 1.21655433e+13
1.24000000e-04 1.21330748e+13
1.24500000e-04 1.21013079e+13
1.25000000e-04 1.20702353e+13
1.25500000e-04 1.20398523e+13
1.26000000e-04 1.20101535e+13
1.26500000e-04 1.19811317e+13
1.27000000e-04 1.19527771e+13
1.27500000e-04 1.19250774e+13
1.28000000e-04 1.18980167e+13
1.28500000e-04 1.18715751e+13
1.29000000e-04 1.18457296e+13
1.29500000e-04 1.18204557e+13
1.30000000e-04 1.17957308e+13
1.30500000e-04 1.17715343e+13
1.31000000e-04 1.17478479e+13
1.31500000e-04 1.17246554e+13
1.32000000e-04 1.17019435e+13
1.32500000e-04 1.16797011e+13
1.33000000e-04 1.16579169e+13
1.33500000e-04 1.16365783e+13
1.34000000e-04 1.16156695e+13
1.34500000e-04 1.15951719e+13
1.35000000e-04 1.15750646e+13
1.35500000e-04 1.15553260e+13
1.36000000e-04 1.15359346e+13
1.36500000e-04 1.15168697e+13
1.37000000e-04 1.14981117e+13
1.37500000e-04 1.14796437e+13
1.38000000e-04 1.14614528e+13
1.38500000e-04 1.14435288e+13
1.39000000e-04 1.14258625e+13
1.39500000e-04 1.14084454e+13
1.40000000e-04 1.13912692e+13
1.40500000e-04 1.13743225e+13
1.41000000e-04 1.13575902e+13
1.41500000e-04 1.13410537e+13
1.42000000e-04 1.13246928e+13
1.42500000e-04 1.13084876e+13
1.43000000e-04 1.12924190e+13
1.43500000e-04 1.12764716e+13
1.44000000e-04 1.12606347e+13
1.44500000e-04 1.12449018e+13
1.45000000e-04 1.12292695e+13
1.45500000e-04 1.12137358e+13
1.46000000e-04 1.11982974e+13
1.46500000e-04 1.11829485e+13
1.47000000e-04 1.11676819e+13
1.47500000e-04 1.11524883e+13
1.48000000e-04 1.11373570e+13
1.48500000e-04 1.11222772e+13
1.49000000e-04 1.11072384e+13
1.49500000e-04 1.10922306e+13
1.50000000e-04 1.10772440e+13
1.50500000e-04 1.10622700e+13
1.51000000e-04 1.10473039e+13
1.51500000e-04 1.10323440e+13
1.52000000e-04 1.10173903e+13
1.52500000e-04 1.10024433e+13
1.53000000e-04 1.09875032e+13
1.53500000e-04 1.09725687e+13
1.54000000e-04 1.09576372e+13
1.54500000e-04 1.09427037e+13
1.55000000e-04 1.09277608e+13
1.55500000e-04 1.09127993e+13
1.56000000e-04 1.08978103e+13
1.56500000e-04 1.08827876e+13
1.57000000e-04 1.08677279e+13
1.57500000e-04 1.08526310e+13
1.58000000e-04 1.08374999e+13
1.58500000e-04 1.08223409e+13
1.59000000e-04 1.08071617e+13
1.59500000e-04 1.07919701e+13
1.60000000e-04 1.07767716e+13
1.60500000e-04 1.07615681e+13
1.61000000e-04 1.07463576e+13
1.61500000e-04 1.07311359e+13
1.62000000e-04 1.07158974e+13
1.62500000e-04 1.07006357e+13
1.63000000e-04 1.06853453e+13
1.63500000e-04 1.06700221e+13
1.64000000e-04 1.06546659e+13
1.64500000e-04 1.06392806e+13
1.65000000e-04 1.06238733e+13
1.65500000e-04 1.06084527e+13
1.66000000e-04 1.05930277e+13
1.66500000e-04 1.05776069e+13
1.67000000e-04 1.05621980e+13
1.67500000e-04 1.05468069e+13
1.68000000e-04 1.05314356e+13
1.68500000e-04 1.05160824e+13
1.69000000e-04 1.05007436e+13
1.69500000e-04 1.04854148e+13
1.70000000e-04 1.04700921e+13
1.70500000e-04 1.04547737e+13
1.71000000e-04 1.04394605e+13
1.71500000e-04 1.04241561e+13
1.72000000e-04 1.04088659e+13
1.72500000e-04 1.03935955e+13
1.73000000e-04 1.03783513e+13
1.73500000e-04 1.03631393e+13
1.74000000e-04 1.03479640e+13
1.74500000e-04 1.03328290e+13
1.75000000e-04 1.03177355e+13
1.75500000e-04 1.03026820e+13
1.76000000e-04 1.02876649e+13
1.76500000e-04 1.02726808e+13
1.77000000e-04 1.02577266e+13
1.77500000e-04 1.02428013e+13
1.78000000e-04 1.02279074e+13
1.78500000e-04 1.02130510e+13
1.79000000e-04 1.01982395e+13
1.79500000e-04 1.01834801e+13
1.80000000e-04 1.01687786e+13
1.80500000e-04 1.01541388e+13
1.81000000e-04 1.01395623e+13
1.81500000e-04 1.01250488e+13
1.82000000e-04 1.01105971e+13
1.82500000e-04 1.00962052e+13
1.83000000e-04 1.00818699e+13
1.83500000e-04 1.00675880e+13
1.84000000e-04 1.00533578e+13
1.84500000e-04 1.00391793e+13
1.85000000e-04 1.00250532e+13
1.85500000e-04 1.00109817e+13
1.86000000e-04 9.99696949e+12
1.86500000e-04 9.98302269e+12
1.87000000e-04 9.96914654e+12
1.87500000e-04 9.95534332e+12
1.88000000e-04 9.94161251e+12
1.88500000e-04 9.92795235e+12
1.89000000e-04 9.91436067e+12
1.89500000e-04 9.90083456e+12
1.90000000e-04 9.88737023e+12
1.90500000e-04 9.87396432e+12
1.91000000e-04 9.86061499e+12
1.91500000e-04 9.84732192e+12
1.92000000e-04 9.83408597e+12
1.92500000e-04 9.82090892e+12
1.93000000e-04 9.80779297e+12
1.93500000e-04 9.79474005e+12
1.94000000e-04 9.78175132e+12
1.94500000e-04 9.76882678e+12
1.95000000e-04 9.75596503e+12
1.95500000e-04 9.74316355e+12
1.96000000e-04 9.73041972e+12
1.96500000e-04 9.71773198e+12
1.97000000e-04 9.70510004e+12
1.97500000e-04 9.69252455e+12
1.98000000e-04 9.68000750e+12
1.98500000e-04 9.66755202e+12
1.99000000e-04 9.65516121e+12
1.99500000e-04 9.64283705e+12
2.00000000e-04 9.63058002e+12
2.00500000e-04 9.61838916e+12
2.01000000e-04 9.60626249e+12
2.01500000e-04 9.59419737e+12
2.02000000e-04 9.58219084e+12
2.02500000e-04 9.57023940e+12
2.03000000e-04 9.55833908e+12
2.03500000e-04 9.54648635e+12
2.04000000e-04 9.53467885e+12
2.04500000e-04 9.52291547e+12
2.05000000e-04 9.51119658e+12
2.05500000e-04 9.49952435e+12
2.06000000e-04 9.48790206e+12
2.06500000e-04 9.47633299e+12
2.07000000e-04 9.46481976e+12
2.07500000e-04 9.45336412e+12
2.08000000e-04 9.44196635e+12
2.08500000e-04 9.43062454e+12
2.09000000e-04 9.41933500e+12
2.09500000e-04 9.40809336e+12
2.10000000e-04 9.39689513e+12
2.10500000e-04 9.38573659e+12
2.11000000e-04 9.37461615e+12
2.11500000e-04 9.36353476e+12
2.12000000e-04 9.35249557e+12
2.12500000e-04 9.34150316e+12
2.13000000e-04 9.33056220e+12
2.13500000e-04 9.31967613e+12
2.14000000e-04 9.30884651e+12
2.14500000e-04 9.29807275e+12
2.15000000e-04 9.28735160e+12
2.15500000e-04 9.27667750e+12
2.16000000e-04 9.26604450e+12
2.16500000e-04 9.25544818e+12
2.17000000e-04 9.24488614e+12
2.17500000e-04 9.23435797e+12
2.18000000e-04 9.22386501e+12
2.18500000e-04 9.21340971e+12
2.19000000e-04 9.20299503e+12
2.19500000e-04 9.19262396e+12
2.20000000e-04 9.18229932e+12
2.20500000e-04 9.17202326e+12
2.21000000e-04 9.16179650e+12
2.21500000e-04 9.15161725e+12
2.22000000e-04 9.14148097e+12
2.22500000e-04 9.13138121e+12
2.23000000e-04 9.12131145e+12
2.23500000e-04 9.11126661e+12
2.24000000e-04 9.10124394e+12
2.24500000e-04 9.09124302e+12
2.25000000e-04 9.08126523e+12
2.25500000e-04 9.07131317e+12
2.26000000e-04 9.06138980e+12
2.26500000e-04 9.05149747e+12
2.27000000e-04 9.04163769e+12
2.27500000e-04 9.03181137e+12
2.28000000e-04 9.02201866e+12
2.28500000e-04 9.01225869e+12
2.29000000e-04 9.00252944e+12
2.29500000e-04 8.99282801e+12
2.30000000e-04 8.98315153e+12
2.30500000e-04 8.97349779e+12
2.31000000e-04 8.96386539e+12
2.31500000e-04 8.95425377e+12
2.32000000e-04 8.94466376e+12
2.32500000e-04 8.93509792e+12
2.33000000e-04 8.92555959e+12
2.33500000e-04 8.91605102e+12
2.34000000e-04 8.90657264e+12
2.34500000e-04 8.89712391e+12
2.35000000e-04 8.88770406e+12
2.35500000e-04 8.87831253e+12
2.36000000e-04 8.86894923e+12
2.36500000e-04 8.85961471e+12
2.37000000e-04 8.85030962e+12
2.37500000e-04 8.84103362e+12
2.38000000e-04 8.83178512e+12
2.38500000e-04 8.82256220e+12
2.39000000e-04 8.81336373e+12
2.39500000e-04 8.80418983e+12
2.40000000e-04 8.79504170e+12
2.40500000e-04 8.78592058e+12
2.41000000e-04 8.77682709e+12
2.41500000e-04 8.76776109e+12
2.42000000e-04 8.75872178e+12
2.42500000e-04 8.74970777e+12
2.43000000e-04 8.74071758e+12
2.43500000e-04 8.73175035e+12
2.44000000e-04 8.72280590e+12
2.44500000e-04 8.71388420e+12
2.45000000e-04 8.70498505e+12
2.45500000e-04 8.69610867e+12
2.46000000e-04 8.68725598e+12
2.46500000e-04 8.67842845e+12
2.47000000e-04 8.66962767e+12
2.47500000e-04 8.66085490e+12
2.48000000e-04 8.65211081e+12
2.48500000e-04 8.64339550e+12
2.49000000e-04 8.63470866e+12
2.49500000e-04 8.62604962e+12
2.50000000e-04 8.61741730e+12
2.50500000e-04 8.60881058e+12
2.51000000e-04 8.60022854e+12
2.51500000e-04 8.59167035e+12
2.52000000e-04 8.58313546e+12
2.52500000e-04 8.57462384e+12
2.53000000e-04 8.56613571e+12
2.53500000e-04 8.55767119e+12
2.54000000e-04 8.54923060e+12
2.54500000e-04 8.54081501e+12
2.55000000e-04 8.53242622e+12
2.55500000e-04 8.52406614e+12
2.56000000e-04 8.51573584e+12
2.56500000e-04 8.50743499e+12
2.57000000e-04 8.49916204e+12
2.57500000e-04 8.49091494e+12
2.58000000e-04 8.48269172e+12
2.58500000e-04 8.47449113e+12
2.59000000e-04 8.46631320e+12
2.59500000e-04 8.45815912e+12
2.60000000e-04 8.45003043e+12
2.60500000e-04 8.44192838e+12
2.61000000e-04 8.43385372e+12
2.61500000e-04 8.42580657e+12
2.62000000e-04 8.41778622e+12
2.62500000e-04 8.40979083e+12
2.63000000e-04 8.40181739e+12
2.63500000e-04 8.39386267e+12
2.64000000e-04 8.38592404e+12
2.64500000e-04 8.37799984e+12
2.65000000e-04 8.37008975e+12
2.65500000e-04 8.36219529e+12
2.66000000e-04 8.35431962e+12
2.66500000e-04 8.34646658e+12
2.67000000e-04 8.33863954e+12
2.67500000e-04 8.33084039e+12
2.68000000e-04 8.32306923e+12
2.68500000e-04 8.31532459e+12
2.69000000e-04 8.30760420e+12
2.69500000e-04 8.29990560e+12
2.70000000e-04 8.29222663e+12
2.70500000e-04 8.28456603e+12
2.71000000e-04 8.27692337e+12
2.71500000e-04 8.26929840e+12
2.72000000e-04 8.26169062e+12
2.72500000e-04 8.25409958e+12
2.73000000e-04 8.24652531e+12
2.73500000e-04 8.23896836e+12
2.74000000e-04 8.23142974e+12
2.74500000e-04 8.22391094e+12
2.75000000e-04 8.21641335e+12
2.75500000e-04 8.20893736e+12
2.76000000e-04 8.20148198e+12
2.76500000e-04 8.19404549e+12
2.77000000e-04 8.18662610e+12
2.77500000e-04 8.17922223e+12
2.78000000e-04 8.17183288e+12
2.78500000e-04 8.16445820e+12
2.79000000e-04 8.15709966e+12
2.79500000e-04 8.14975914e+12
2.80000000e-04 8.14243811e+12
2.80500000e-04 8.13513758e+12
2.81000000e-04 8.12785903e+12
2.81500000e-04 8.12060471e+12
2.82000000e-04 8.11337670e+12
2.82500000e-04 8.10617583e+12
2.83000000e-04 8.09900136e+12
2.83500000e-04 8.09185147e+12
2.84000000e-04 8.08472399e+12
2.84500000e-04 8.07761707e+12
2.85000000e-04 8.07052960e+12
2.85500000e-04 8.06346151e+12
2.86000000e-04 8.05641374e+12
2.86500000e-04 8.04938769e+12
2.87000000e-04 8.04238461e+12
2.87500000e-04 8.03540506e+12
2.88000000e-04 8.02844880e+12
2.88500000e-04 8.02151514e+12
2.89000000e-04 8.01460322e+12
2.89500000e-04 8.00771216e+12
2.90000000e-04 8.00084129e+12
2.90500000e-04 7.99399017e+12
2.91000000e-04 7.98715827e+12
2.91500000e-04 7.98034445e+12
2.92000000e-04 7.97354686e+12
2.92500000e-04 7.96676358e+12
2.93000000e-04 7.95999340e+12
2.93500000e-04 7.95323623e+12
2.94000000e-04 7.94649308e+12
2.94500000e-04 7.93976579e+12
2.95000000e-04 7.93305646e+12
2.95500000e-04 7.92636689e+12
2.96000000e-04 7.91969782e+12
2.96500000e-04 7.91304872e+12
2.97000000e-04 7.90641820e+12
2.97500000e-04 7.89980453e+12
2.98000000e-04 7.89320593e+12
2.98500000e-04 7.88662099e+12
2.99000000e-04 7.88004887e+12
2.99500000e-04 7.87348937e+12
3.00000000e-04 7.86694299e+12
3.00500000e-04 7.86041072e+12
3.01000000e-04 7.85389350e+12
3.01500000e-04 7.84739190e+12
3.02000000e-04 7.84090612e+12
3.02500000e-04 7.83443591e+12
3.03000000e-04 7.82798066e+12
3.03500000e-04 7.82154005e+12
3.04000000e-04 7.81511461e+12
3.04500000e-04 7.80870545e+12
3.05000000e-04 7.80231354e+12
3.05500000e-04 7.79593940e+12
3.06000000e-04 7.78958311e+12
3.06500000e-04 7.78324452e+12
3.07000000e-04 7.77692337e+12
3.07500000e-04 7.77061930e+12
3.08000000e-04 7.76433191e+12
3.08500000e-04 7.75806091e+12
3.09000000e-04 7.75180597e+12
3.09500000e-04 7.74556620e+12
3.10000000e-04 7.73934000e+12
3.10500000e-04 7.73312530e+12
3.11000000e-04 7.72691999e+12
3.11500000e-04 7.72072221e+12
3.12000000e-04 7.71453076e+12
3.12500000e-04 7.70834548e+12
3.13000000e-04 7.70216727e+12
3.13500000e-04 7.69599752e+12
3.14000000e-04 7.68983726e+12
3.14500000e-04 7.68368690e+12
3.15000000e-04 7.67754690e+12
3.15500000e-04 7.67141844e+12
3.16000000e-04 7.66530363e+12
3.16500000e-04 7.65920504e+12
3.17000000e-04 7.65312501e+12
3.17500000e-04 7.64706491e+12
3.18000000e-04 7.64102459e+12
3.18500000e-04 7.63500237e+12
3.19000000e-04 7.62899581e+12
3.19500000e-04 7.62300280e+12
3.20000000e-04 7.61702232e+12
3.20500000e-04 7.61105466e+12
3.21000000e-04 7.60510106e+12
3.21500000e-04 7.59916302e+12
3.22000000e-04 7.59324183e+12
3.22500000e-04 7.58733822e+12
3.23000000e-04 7.58145231e+12
3.23500000e-04 7.57558371e+12
3.24000000e-04 7.56973168e+12
3.24500000e-04 7.56389530e+12
3.25000000e-04 7.55807375e+12
3.25500000e-04 7.55226623e+12
3.26000000e-04 7.54647205e+12
3.26500000e-04 7.54069071e+12
3.27000000e-04 7.53492235e+12
3.27500000e-04 7.52916798e+12
3.28000000e-04 7.52342947e+12
3.28500000e-04 7.51770906e+12
3.29000000e-04 7.51200875e+12
3.29500000e-04 7.50632946e+12
3.30000000e-04 7.50067039e+12
3.30500000e-04 7.49502913e+12
3.31000000e-04 7.48940235e+12
3.31500000e-04 7.48378676e+12
3.32000000e-04 7.47817960e+12
3.32500000e-04 7.47257905e+12
